# Cu K-edge chi(k) - larch autobk, rbkg=1.0
0.00000000e+00 1.40920401e+00
5.00000000e-02 1.33738235e+00
1.00000000e-01 1.26694712e+00
1.50000000e-01 1.19788970e+00
2.00000000e-01 1.13020144e+00
2.50000000e-01 1.06387370e+00
3.00000000e-01 9.98897830e-01
3.50000000e-01 9.35265198e-01
4.00000000e-01 8.72967163e-01
4.50000000e-01 8.11995082e-01
5.00000000e-01 7.52340315e-01
5.50000000e-01 6.93994221e-01
6.00000000e-01 6.36948160e-01
6.50000000e-01 5.81193490e-01
7.00000000e-01 5.26721572e-01
7.50000000e-01 4.73523763e-01
8.00000000e-01 4.21591424e-01
8.50000000e-01 3.70915914e-01
9.00000000e-01 3.21488591e-01
9.50000000e-01 2.73300816e-01
1.00000000e+00 2.26343946e-01
1.05000000e+00 1.80612836e-01
1.10000000e+00 1.36164232e-01
1.15000000e+00 9.31079947e-02
1.20000000e+00 5.15557045e-02
1.25000000e+00 1.16189433e-02
1.30000000e+00 -2.66643521e-02
1.35000000e+00 -6.36052682e-02
1.40000000e+00 -9.96181832e-02
1.45000000e+00 -1.35117365e-01
1.50000000e+00 -1.69639437e-01
1.55000000e+00 -1.99744979e-01
1.60000000e+00 -2.21364367e-01
1.65000000e+00 -2.30538414e-01
1.70000000e+00 -2.24688548e-01
1.75000000e+00 -2.02175109e-01
1.80000000e+00 -1.62800675e-01
1.85000000e+00 -1.21932236e-01
1.90000000e+00 -9.78507144e-02
1.95000000e+00 -9.20597112e-02
2.00000000e+00 -1.03279747e-01
2.05000000e+00 -1.24660055e-01
2.10000000e+00 -1.42278501e-01
2.15000000e+00 -1.44043743e-01
2.20000000e+00 -1.32737628e-01
2.25000000e+00 -1.16914616e-01
2.30000000e+00 -9.90777619e-02
2.35000000e+00 -7.42458456e-02
2.40000000e+00 -3.79285275e-02
2.45000000e+00 1.17211864e-02
2.50000000e+00 7.39922005e-02
2.55000000e+00 1.37610147e-01
2.60000000e+00 1.87223069e-01
2.65000000e+00 2.06791594e-01
2.70000000e+00 1.98982436e-01
2.75000000e+00 1.74110077e-01
2.80000000e+00 1.42449050e-01
2.85000000e+00 1.13869171e-01
2.90000000e+00 9.65160670e-02
2.95000000e+00 9.47459424e-02
3.00000000e+00 1.03310659e-01
3.05000000e+00 1.10466136e-01
3.10000000e+00 9.77926546e-02
3.15000000e+00 6.46094612e-02
3.20000000e+00 2.56708245e-02
3.25000000e+00 -2.90974130e-03
3.30000000e+00 -2.16064107e-02
3.35000000e+00 -4.11931375e-02
3.40000000e+00 -5.47272501e-02
3.45000000e+00 -6.20804969e-02
3.50000000e+00 -6.50689422e-02
3.55000000e+00 -6.37097440e-02
3.60000000e+00 -5.73376679e-02
3.65000000e+00 -4.70959609e-02
3.70000000e+00 -3.64681416e-02
3.75000000e+00 -2.43864797e-02
3.80000000e+00 -1.25648683e-02
3.85000000e+00 -1.85602687e-03
3.90000000e+00 6.29102813e-03
3.95000000e+00 7.88937725e-03
4.00000000e+00 -1.17145549e-03
4.05000000e+00 -1.71383995e-02
4.10000000e+00 -3.36726183e-02
4.15000000e+00 -4.79664530e-02
4.20000000e+00 -5.17092135e-02
4.25000000e+00 -5.50831074e-02
4.30000000e+00 -5.33431715e-02
4.35000000e+00 -4.67938612e-02
4.40000000e+00 -3.73584986e-02
4.45000000e+00 -2.75034375e-02
4.50000000e+00 -2.20324028e-02
4.55000000e+00 -2.02024635e-02
4.60000000e+00 -1.59682069e-02
4.65000000e+00 -1.07986979e-02
4.70000000e+00 -1.43510846e-03
4.75000000e+00 3.70207609e-03
4.80000000e+00 4.31916603e-03
4.85000000e+00 6.36126834e-03
4.90000000e+00 1.54715609e-02
4.95000000e+00 2.68657895e-02
5.00000000e+00 3.34861541e-02
5.05000000e+00 3.82400695e-02
5.10000000e+00 4.46616556e-02
5.15000000e+00 5.16321509e-02
5.20000000e+00 6.16101059e-02
5.25000000e+00 6.48694258e-02
5.30000000e+00 6.22957436e-02
5.35000000e+00 5.63473844e-02
5.40000000e+00 4.43547321e-02
5.45000000e+00 2.72782923e-02
5.50000000e+00 1.44187718e-02
5.55000000e+00 2.90111500e-03
5.60000000e+00 -6.80038753e-03
5.65000000e+00 -1.27478998e-02
5.70000000e+00 -1.89352242e-02
5.75000000e+00 -2.89997068e-02
5.80000000e+00 -3.86362809e-02
5.85000000e+00 -4.95506551e-02
5.90000000e+00 -5.44356812e-02
5.95000000e+00 -5.24989815e-02
6.00000000e+00 -4.52779006e-02
6.05000000e+00 -3.26139750e-02
6.10000000e+00 -2.39393059e-02
6.15000000e+00 -1.48154778e-02
6.20000000e+00 -8.39123778e-03
6.25000000e+00 -6.89218137e-03
6.30000000e+00 -5.20588018e-03
6.35000000e+00 -3.75289643e-03
6.40000000e+00 5.16190376e-05
6.45000000e+00 1.11892541e-02
6.50000000e+00 2.87908749e-02
6.55000000e+00 4.44949300e-02
6.60000000e+00 5.33813250e-02
6.65000000e+00 5.61076182e-02
6.70000000e+00 5.49031604e-02
6.75000000e+00 4.89480431e-02
6.80000000e+00 4.07818631e-02
6.85000000e+00 2.72353634e-02
6.90000000e+00 1.30694286e-02
6.95000000e+00 -6.57376643e-03
7.00000000e+00 -2.27104589e-02
7.05000000e+00 -4.14832577e-02
7.10000000e+00 -5.50307216e-02
7.15000000e+00 -6.24302108e-02
7.20000000e+00 -5.98543623e-02
7.25000000e+00 -5.04228501e-02
7.30000000e+00 -3.42890031e-02
7.35000000e+00 -1.85931078e-02
7.40000000e+00 -6.99658355e-03
7.45000000e+00 3.01169685e-04
7.50000000e+00 2.95397460e-03
7.55000000e+00 3.12969702e-03
7.60000000e+00 9.09873862e-04
7.65000000e+00 7.94935376e-04
7.70000000e+00 2.69833702e-03
7.75000000e+00 1.01861696e-03
7.80000000e+00 6.76265632e-04
7.85000000e+00 2.37045311e-03
7.90000000e+00 9.35546365e-03
7.95000000e+00 1.86626972e-02
8.00000000e+00 2.86624626e-02
8.05000000e+00 3.30653912e-02
8.10000000e+00 3.37605708e-02
8.15000000e+00 3.13913673e-02
8.20000000e+00 2.65856385e-02
8.25000000e+00 2.10216937e-02
8.30000000e+00 1.14745850e-02
8.35000000e+00 -4.20379285e-04
8.40000000e+00 -8.67508595e-03
8.45000000e+00 -1.50119141e-02
8.50000000e+00 -1.97193880e-02
8.55000000e+00 -1.88317466e-02
8.60000000e+00 -1.60186277e-02
8.65000000e+00 -1.53924210e-02
8.70000000e+00 -1.65579899e-02
8.75000000e+00 -1.19623095e-02
8.80000000e+00 -9.06607962e-03
8.85000000e+00 -9.12188550e-03
8.90000000e+00 -6.62870776e-03
8.95000000e+00 -6.66254148e-04
9.00000000e+00 -2.79138125e-04
9.05000000e+00 2.13112812e-03
9.10000000e+00 5.93394786e-03
9.15000000e+00 7.24199064e-03
9.20000000e+00 9.87840949e-03
9.25000000e+00 1.32684860e-02
9.30000000e+00 1.17402621e-02
9.35000000e+00 1.73209165e-02
9.40000000e+00 1.40163082e-02
9.45000000e+00 1.01994877e-02
9.50000000e+00 9.33188375e-03
9.55000000e+00 4.69593084e-03
9.60000000e+00 9.28812495e-04
9.65000000e+00 -2.40843443e-03
9.70000000e+00 -5.36940482e-03
9.75000000e+00 -3.48665345e-03
9.80000000e+00 -7.72045964e-03
9.85000000e+00 -4.66700960e-03
9.90000000e+00 -9.23662906e-03
9.95000000e+00 -9.51976542e-03
1.00000000e+01 -1.33975076e-02
1.00500000e+01 -1.14873073e-02
1.01000000e+01 -1.14356900e-02
1.01500000e+01 -1.09629999e-02
1.02000000e+01 -8.64673860e-03
1.02500000e+01 -5.91814851e-03
1.03000000e+01 -5.33873079e-03
1.03500000e+01 -2.59642412e-03
1.04000000e+01 -2.10308544e-03
1.04500000e+01 2.92799188e-03
1.05000000e+01 2.51998706e-03
1.05500000e+01 5.48362909e-03
1.06000000e+01 4.40733517e-03
1.06500000e+01 7.09267105e-03
1.07000000e+01 6.30345406e-03
1.07500000e+01 7.80502990e-03
1.08000000e+01 6.12830918e-03
1.08500000e+01 5.18598362e-03
1.09000000e+01 2.19719882e-03
1.09500000e+01 -1.09187908e-03
1.10000000e+01 9.36700516e-04
1.10500000e+01 -8.11679215e-04
1.11000000e+01 1.15028332e-03
1.11500000e+01 -6.20991036e-04
1.12000000e+01 -5.17797530e-04
1.12500000e+01 1.84182931e-03
1.13000000e+01 -2.61651634e-03
1.13500000e+01 -2.69415242e-04
1.14000000e+01 -1.13428750e-03
1.14500000e+01 -1.27595525e-03
1.15000000e+01 -1.14180940e-03
1.15500000e+01 -1.82010936e-03
1.16000000e+01 -1.53920207e-03
1.16500000e+01 -1.70048589e-03
1.17000000e+01 4.30848162e-04
1.17500000e+01 3.75286240e-04
1.18000000e+01 2.53864556e-03
1.18500000e+01 3.28205616e-03
1.19000000e+01 3.94863483e-03
1.19500000e+01 6.02170552e-03
1.20000000e+01 6.41255830e-03
1.20500000e+01 5.54475699e-03
1.21000000e+01 4.89094000e-03
1.21500000e+01 5.69081192e-03
1.22000000e+01 2.50823278e-03
1.22500000e+01 1.33615782e-03
1.23000000e+01 2.22502793e-03
1.23500000e+01 3.94854776e-04
1.24000000e+01 -1.13542050e-03
1.24500000e+01 -4.86995572e-04
1.25000000e+01 -3.71276272e-04
1.25500000e+01 -2.09209156e-03
1.26000000e+01 -3.59744409e-03
1.26500000e+01 -2.38026723e-03
1.27000000e+01 -3.13382909e-03
1.27500000e+01 -3.48743228e-03
1.28000000e+01 -3.73284061e-03
1.28500000e+01 -4.39190395e-03
1.29000000e+01 -3.36552857e-03
1.29500000e+01 -5.51880979e-03
1.30000000e+01 -4.55166111e-03
1.30500000e+01 -5.50906804e-03
1.31000000e+01 -5.54570029e-03
1.31500000e+01 -5.12398309e-03
1.32000000e+01 -5.95730647e-03
1.32500000e+01 -5.95496113e-03
1.33000000e+01 -5.43660038e-03
1.33500000e+01 -5.62095464e-03
1.34000000e+01 -5.45977061e-03
1.34500000e+01 -8.07623259e-03
1.35000000e+01 -4.58662666e-03
1.35500000e+01 9.77592568e-03
1.36000000e+01 1.27190457e-02
1.36500000e+01 1.16966959e-02
1.37000000e+01 8.01455774e-03
1.37500000e+01 5.53324346e-03
1.38000000e+01 2.66299676e-03
1.38500000e+01 1.81629921e-03
1.39000000e+01 2.25948379e-03
1.39500000e+01 3.66477853e-03
1.40000000e+01 3.73619679e-03
1.40500000e+01 3.40265168e-03
1.41000000e+01 3.24701247e-03
1.41500000e+01 3.99026136e-03
1.42000000e+01 3.21859034e-03
1.42500000e+01 1.13281805e-03
1.43000000e+01 1.67742828e-03
1.43500000e+01 -3.24842586e-04
1.44000000e+01 -9.67675301e-04
1.44500000e+01 -7.95225800e-04
1.45000000e+01 -3.43864868e-04
1.45500000e+01 6.61178949e-04
1.46000000e+01 8.11235746e-04
1.46500000e+01 3.91770414e-04
1.47000000e+01 1.10298050e-03
1.47500000e+01 4.85504181e-04
1.48000000e+01 -4.56457088e-04
1.48500000e+01 -6.08756992e-04
1.49000000e+01 -1.25462642e-03
1.49500000e+01 -1.91622759e-04
1.50000000e+01 -1.47081688e-03
1.50500000e+01 -2.21376491e-03
1.51000000e+01 -1.72383171e-03
1.51500000e+01 -2.15877648e-03
1.52000000e+01 -3.20101172e-03
1.52500000e+01 -2.85954654e-03
1.53000000e+01 -2.14543190e-03
1.53500000e+01 -2.94152708e-03
1.54000000e+01 -2.89872127e-03
1.54500000e+01 -3.80791885e-03
1.55000000e+01 -5.74566725e-04
1.55500000e+01 -1.83811049e-03
1.56000000e+01 -1.46404526e-03
1.56500000e+01 -1.77721224e-03
1.57000000e+01 -1.22614720e-03
1.57500000e+01 -8.56872935e-04
1.58000000e+01 -3.50199182e-04
1.58500000e+01 -5.60345225e-04
1.59000000e+01 7.58131736e-04
1.59500000e+01 5.70245947e-05
1.60000000e+01 1.25033749e-03
1.60500000e+01 1.06993414e-03
1.61000000e+01 2.72737302e-03
1.61500000e+01 1.92526794e-03
1.62000000e+01 3.08623636e-03
1.62500000e+01 4.91155552e-03
1.63000000e+01 3.12523047e-03
1.63500000e+01 2.19603365e-03
1.64000000e+01 3.34370504e-03
